Enter integer wave period (s) & wave height (ft) 
 for wave 1: 
 for wave 2: 
The wavelengths (ft) are: 82.08 513.00 
0.000000 0.000000
0.200000 0.139921
0.400000 0.271291
0.600000 0.386317
0.800000 0.478641
1.000000 0.543893
1.200000 0.580038
1.400000 0.587511
1.600000 0.569110
1.800000 0.529668
2.000000 0.475528
2.200000 0.413889
2.400000 0.352067
2.600000 0.296759
2.800000 0.253379
3.000000 0.225528
3.200000 0.214649
3.400000 0.219910
3.600000 0.238310
3.800000 0.265019
4.000000 0.293893
4.200000 0.318131
4.400000 0.331009
4.600000 0.326599
4.800000 0.300431
5.000000 0.250000
5.200000 0.175097
5.400000 0.077909
5.600000 -0.037116
5.800000 -0.163623
6.000000 -0.293893
6.200000 -0.419528
6.400000 -0.532203
6.600000 -0.624419
6.800000 -0.690178
7.000000 -0.725528
7.200000 -0.728908
7.400000 -0.701267
7.600000 -0.645959
7.800000 -0.568398
8.000000 -0.475528
8.200000 -0.375159
8.400000 -0.275217
8.600000 -0.183002
8.800000 -0.104509
9.000000 -0.043892
9.200000 -0.003113
9.400000 0.018192
9.600000 0.022601
9.800000 0.014588
10.000000 -0.000000
10.200000 -0.014588
10.400000 -0.022601
10.600000 -0.018192
10.800000 0.003113
11.000000 0.043893
11.200000 0.104510
11.400000 0.183003
11.600000 0.275218
11.800000 0.375160
12.000000 0.475529
12.200000 0.568398
12.400000 0.645960
12.600000 0.701268
12.800000 0.728908
13.000000 0.725528
13.200000 0.690177
13.400000 0.624418
13.600000 0.532202
13.800000 0.419527
14.000000 0.293892
14.200000 0.163622
14.400000 0.037115
14.600000 -0.077910
14.800000 -0.175098
15.000000 -0.250001
15.200000 -0.300431
15.400000 -0.326599
15.600000 -0.331009
15.800000 -0.318131
16.000000 -0.293892
16.200000 -0.265019
16.400000 -0.238310
16.600000 -0.219910
16.800000 -0.214649
17.000000 -0.225528
17.200000 -0.253380
17.400000 -0.296760
17.600000 -0.352068
17.800000 -0.413890
18.000000 -0.475529
18.200000 -0.529668
18.400000 -0.569111
18.600000 -0.587511
18.800000 -0.580037
19.000000 -0.543892
19.200000 -0.478640
19.400000 -0.386315
19.600000 -0.271290
19.800000 -0.139919
20.000000 0.000002
20.200000 0.139922
20.400000 0.271293
20.600000 0.386318
20.800000 0.478642
21.000000 0.543893
21.200000 0.580038
21.400000 0.587511
21.600000 0.569110
21.800000 0.529667
22.000000 0.475528
22.200000 0.413889
22.400000 0.352066
22.600000 0.296758
22.800000 0.253379
23.000000 0.225528
23.200000 0.214649
23.400000 0.219910
23.600000 0.238311
23.800000 0.265020
24.000000 0.293893
24.200000 0.318131
24.400000 0.331009
24.600000 0.326599
24.800000 0.300430
25.000000 0.249999
25.200000 0.175096
25.400000 0.077908
25.600000 -0.037118
25.800000 -0.163624
26.000000 -0.293894
26.200000 -0.419530
26.400000 -0.532204
26.600000 -0.624419
26.800000 -0.690178
27.000000 -0.725529
27.200000 -0.728908
27.400000 -0.701267
27.600000 -0.645959
27.800000 -0.568397
28.000000 -0.475527
28.200000 -0.375158
28.400000 -0.275216
28.600000 -0.183001
28.800000 -0.104508
29.000000 -0.043892
29.200000 -0.003112
29.400000 0.018192
29.600000 0.022601
29.800000 0.014587
30.000000 -0.000000
30.200000 -0.014588
30.400000 -0.022601
30.600000 -0.018192
30.800000 0.003113
31.000000 0.043893
31.200000 0.104511
31.400000 0.183004
31.600000 0.275219
31.800000 0.375161
32.000000 0.475530
32.200000 0.568399
32.400000 0.645961
32.600000 0.701268
32.800000 0.728908
33.000000 0.725528
33.200000 0.690177
33.400000 0.624417
33.600000 0.532201
33.800000 0.419526
34.000000 0.293890
34.200000 0.163620
34.400000 0.037114
34.600000 -0.077911
34.800000 -0.175099
35.000000 -0.250001
35.200000 -0.300431
35.400000 -0.326599
35.600000 -0.331008
35.800000 -0.318131
36.000000 -0.293892
36.200000 -0.265019
36.400000 -0.238310
36.600000 -0.219909
36.800000 -0.214649
37.000000 -0.225529
37.200000 -0.253380
37.400000 -0.296760
37.600000 -0.352068
37.800000 -0.413891
38.000000 -0.475529
38.200000 -0.529669
38.400000 -0.569111
38.600000 -0.587511
38.800000 -0.580037
39.000000 -0.543892
39.200000 -0.478639
39.400000 -0.386314
39.600000 -0.271289
39.800000 -0.139918
Maximum combined wave height is 1.46 ft 
